# step, energy, mass, x-momentum, y-momentum, z-momentum 
1 3.4828846e+10 1.2087820e+05 1.9460852e+08 4.3129624e+07 0.0000000e+00
2 3.9036319e+10 1.3160037e+05 1.7828131e+08 3.4996374e+07 0.0000000e+00
3 4.1104175e+10 1.3590033e+05 1.6176613e+08 2.9336335e+07 0.0000000e+00
4 4.0173496e+10 1.3107466e+05 1.4559560e+08 2.4706514e+07 0.0000000e+00
5 3.6427386e+10 1.2214634e+05 1.2990178e+08 2.3876225e+07 0.0000000e+00
6 3.3174307e+10 1.1020171e+05 1.1470776e+08 2.3105624e+07 0.0000000e+00
7 2.8297817e+10 9.4776248e+04 1.0031261e+08 2.0889948e+07 0.0000000e+00
8 2.3613046e+10 7.9406718e+04 8.7228739e+07 1.8691352e+07 0.0000000e+00
9 1.9553598e+10 6.5692517e+04 7.5554183e+07 1.6655348e+07 0.0000000e+00
10 1.5837803e+10 5.3433360e+04 6.5449655e+07 1.4145474e+07 0.0000000e+00
11 1.2922255e+10 4.3331689e+04 5.5772563e+07 1.3528790e+07 0.0000000e+00
12 1.0250900e+10 3.4289480e+04 4.9384727e+07 9.4351394e+06 0.0000000e+00
13 8.3149337e+09 3.0172424e+04 4.3701712e+07 7.7174890e+06 0.0000000e+00
14 6.9276708e+09 2.6353918e+04 3.8759172e+07 6.0346395e+06 0.0000000e+00
15 5.8606763e+09 2.2713577e+04 3.4485616e+07 4.8615836e+06 0.0000000e+00
16 5.0358291e+09 1.9217331e+04 3.0829246e+07 4.0833724e+06 0.0000000e+00
17 4.3310859e+09 1.6438450e+04 2.7701829e+07 3.5453844e+06 0.0000000e+00
18 3.8076509e+09 1.4509704e+04 2.5017855e+07 3.0461370e+06 0.0000000e+00
19 3.3429151e+09 1.2647891e+04 2.2706512e+07 2.6417924e+06 0.0000000e+00
20 2.9365840e+09 1.0950003e+04 2.0709646e+07 2.2953105e+06 0.0000000e+00
21 2.6017230e+09 9.5687073e+03 1.8970115e+07 2.0025378e+06 0.0000000e+00
22 2.3128715e+09 8.4364505e+03 1.7449809e+07 1.7516612e+06 0.0000000e+00
23 2.0637942e+09 7.4957318e+03 1.6114514e+07 1.5419932e+06 0.0000000e+00
24 1.8495442e+09 6.7206743e+03 1.4935747e+07 1.3630348e+06 0.0000000e+00
25 1.6655058e+09 6.0575888e+03 1.3891788e+07 1.2119608e+06 0.0000000e+00
26 1.5100987e+09 5.5069091e+03 1.2962401e+07 1.0815095e+06 0.0000000e+00
27 1.3821013e+09 5.0549643e+03 1.2131084e+07 9.6951116e+05 0.0000000e+00
28 1.2832548e+09 4.6738530e+03 1.1385297e+07 8.7403307e+05 0.0000000e+00
29 1.2051111e+09 4.3523908e+03 1.0713323e+07 7.9354357e+05 0.0000000e+00
30 1.1412221e+09 4.0854986e+03 1.0105303e+07 7.2524478e+05 0.0000000e+00
31 1.0915086e+09 3.8737137e+03 9.5535280e+06 6.6628564e+05 0.0000000e+00
32 1.0529826e+09 3.7042601e+03 9.0512861e+06 6.1602114e+05 0.0000000e+00
33 1.0222950e+09 3.5653356e+03 8.5919997e+06 5.7356738e+05 0.0000000e+00
34 9.9698990e+08 3.4524683e+03 8.1703612e+06 5.3762121e+05 0.0000000e+00
35 9.7687346e+08 3.3629163e+03 7.7817736e+06 5.0696669e+05 0.0000000e+00
36 9.6185821e+08 3.2961964e+03 7.4223868e+06 4.8317264e+05 0.0000000e+00
37 9.5245291e+08 3.2545179e+03 7.0892503e+06 4.6621749e+05 0.0000000e+00
38 9.5046801e+08 3.2411897e+03 6.7795842e+06 4.5766080e+05 0.0000000e+00
39 9.5725279e+08 3.2607481e+03 6.4915398e+06 4.5718572e+05 0.0000000e+00
40 9.7831130e+08 3.3306484e+03 6.2243840e+06 4.6511831e+05 0.0000000e+00
41 1.0187461e+09 3.4678783e+03 5.9770780e+06 4.8289417e+05 0.0000000e+00
42 1.0888848e+09 3.7112529e+03 5.7495634e+06 5.0805007e+05 0.0000000e+00
43 1.2002436e+09 4.0950686e+03 5.5410914e+06 5.3807627e+05 0.0000000e+00
44 1.3535840e+09 4.6261757e+03 5.3517588e+06 5.7220053e+05 0.0000000e+00
45 1.5498470e+09 5.3119159e+03 5.1807334e+06 6.0591005e+05 0.0000000e+00
46 1.7871649e+09 6.1418081e+03 5.0274672e+06 6.3177257e+05 0.0000000e+00
47 2.0596136e+09 7.0920355e+03 4.8904401e+06 6.4696338e+05 0.0000000e+00
48 2.3539841e+09 8.1154197e+03 4.7677302e+06 6.4633557e+05 0.0000000e+00
49 2.6509499e+09 9.1470299e+03 4.6574858e+06 6.2790384e+05 0.0000000e+00
50 2.9291350e+09 1.0112855e+04 4.5571942e+06 5.9226467e+05 0.0000000e+00
51 3.1688321e+09 1.0946895e+04 4.4612796e+06 5.4082866e+05 0.0000000e+00
52 3.3543375e+09 1.1594555e+04 4.3654882e+06 4.8076202e+05 0.0000000e+00
53 3.4728684e+09 1.2011707e+04 4.2649579e+06 4.3225036e+05 0.0000000e+00
54 3.5165926e+09 1.2171740e+04 4.1570283e+06 4.3329456e+05 0.0000000e+00
55 3.4845152e+09 1.2072125e+04 4.0405780e+06 4.5661035e+05 0.0000000e+00
56 3.3806424e+09 1.1725739e+04 3.9167200e+06 4.8184216e+05 0.0000000e+00
57 3.2153800e+09 1.1166990e+04 3.7869221e+06 4.9889780e+05 0.0000000e+00
58 3.0017528e+09 1.0438914e+04 3.6524962e+06 5.1140322e+05 0.0000000e+00
59 2.7504039e+09 9.5790642e+03 3.5142998e+06 5.1640253e+05 0.0000000e+00
60 2.4738856e+09 8.6295071e+03 3.3740684e+06 5.1914149e+05 0.0000000e+00
61 2.1892566e+09 7.6466983e+03 3.2331249e+06 5.2296437e+05 0.0000000e+00
62 1.9468342e+09 6.7996011e+03 3.0939326e+06 5.1838689e+05 0.0000000e+00
63 1.7376264e+09 6.0639270e+03 2.9591437e+06 5.0670216e+05 0.0000000e+00
64 1.5577235e+09 5.4297154e+03 2.8301218e+06 4.8962322e+05 0.0000000e+00
65 1.4224051e+09 4.9508511e+03 2.7101490e+06 4.6916062e+05 0.0000000e+00
66 1.3394236e+09 4.6585228e+03 2.6015613e+06 4.4724587e+05 0.0000000e+00
67 1.3034049e+09 4.5314476e+03 2.5039588e+06 4.2434960e+05 0.0000000e+00
68 1.3094023e+09 4.5518168e+03 2.4182451e+06 3.9996060e+05 0.0000000e+00
69 1.3505092e+09 4.6936671e+03 2.3448560e+06 3.7514960e+05 0.0000000e+00
70 1.4091542e+09 4.8946260e+03 2.2821183e+06 3.4897013e+05 0.0000000e+00
71 1.4859888e+09 5.1596092e+03 2.2303873e+06 3.2294087e+05 0.0000000e+00
72 1.5966546e+09 5.5469191e+03 2.1866910e+06 2.9714438e+05 0.0000000e+00
73 1.7058917e+09 5.9283283e+03 2.1460629e+06 2.7228062e+05 0.0000000e+00
74 1.7942286e+09 6.2337173e+03 2.1059259e+06 2.5270383e+05 0.0000000e+00
75 1.8549888e+09 6.4454645e+03 2.0651841e+06 2.4029849e+05 0.0000000e+00
76 1.8828114e+09 6.5440681e+03 2.0237471e+06 2.3572491e+05 0.0000000e+00
77 1.8766062e+09 6.5251762e+03 1.9815723e+06 2.4196304e+05 0.0000000e+00
78 1.8379610e+09 6.3938973e+03 1.9393851e+06 2.5228293e+05 0.0000000e+00
79 1.7693619e+09 6.1597137e+03 1.8975767e+06 2.6254698e+05 0.0000000e+00
80 1.6766682e+09 5.8424048e+03 1.8559165e+06 2.7047817e+05 0.0000000e+00
81 1.5647950e+09 5.4587536e+03 1.8148084e+06 2.7545102e+05 0.0000000e+00
82 1.4417217e+09 5.0360125e+03 1.7739778e+06 2.7721162e+05 0.0000000e+00
83 1.3180562e+09 4.6096657e+03 1.7359542e+06 2.7677865e+05 0.0000000e+00
84 1.2894468e+09 4.5099857e+03 1.7022236e+06 2.7308782e+05 0.0000000e+00
85 1.3403511e+09 4.6854269e+03 1.6720289e+06 2.6683950e+05 0.0000000e+00
86 1.4082527e+09 4.9192117e+03 1.6439864e+06 2.5894753e+05 0.0000000e+00
87 1.4775500e+09 5.1586127e+03 1.6172731e+06 2.4791012e+05 0.0000000e+00
88 1.5387335e+09 5.3712485e+03 1.5910607e+06 2.3371054e+05 0.0000000e+00
89 1.5832359e+09 5.5268284e+03 1.5654083e+06 2.1688575e+05 0.0000000e+00
90 1.6068810e+09 5.6107325e+03 1.5395352e+06 1.9873994e+05 0.0000000e+00
91 1.6072166e+09 5.6141031e+03 1.5130452e+06 1.8134354e+05 0.0000000e+00
92 1.5880438e+09 5.5493825e+03 1.4860752e+06 1.7288257e+05 0.0000000e+00
93 1.5589791e+09 5.4510455e+03 1.4588142e+06 1.7306896e+05 0.0000000e+00
94 1.5214941e+09 5.3270802e+03 1.4315878e+06 1.7943395e+05 0.0000000e+00
95 1.4626061e+09 5.1278252e+03 1.4034449e+06 1.8759452e+05 0.0000000e+00
96 1.3861585e+09 4.8674594e+03 1.3742942e+06 1.9500411e+05 0.0000000e+00
97 1.3096092e+09 4.6055223e+03 1.3451105e+06 2.0018868e+05 0.0000000e+00
98 1.2770340e+09 4.4946488e+03 1.3182358e+06 2.0246787e+05 0.0000000e+00
99 1.2607918e+09 4.4382161e+03 1.2940499e+06 2.0070279e+05 0.0000000e+00
100 1.2490848e+09 4.3977913e+03 1.2719891e+06 1.9650411e+05 0.0000000e+00
101 1.2413247e+09 4.3713401e+03 1.2526614e+06 1.8984489e+05 0.0000000e+00
102 1.2665854e+09 4.4598667e+03 1.2375597e+06 1.8001665e+05 0.0000000e+00
103 1.3131214e+09 4.6225398e+03 1.2255018e+06 1.6915915e+05 0.0000000e+00
104 1.3639594e+09 4.8006653e+03 1.2150696e+06 1.5792957e+05 0.0000000e+00
105 1.4119566e+09 4.9702585e+03 1.2054876e+06 1.4760740e+05 0.0000000e+00
106 1.4525736e+09 5.1152445e+03 1.1962732e+06 1.3788472e+05 0.0000000e+00
107 1.4833520e+09 5.2267024e+03 1.1870320e+06 1.3210427e+05 0.0000000e+00
108 1.5028058e+09 5.2991366e+03 1.1775548e+06 1.3573467e+05 0.0000000e+00
109 1.5120041e+09 5.3361806e+03 1.1676526e+06 1.4145392e+05 0.0000000e+00
110 1.5131864e+09 5.3455161e+03 1.1573876e+06 1.4754830e+05 0.0000000e+00
111 1.5091022e+09 5.3365764e+03 1.1466879e+06 1.5157531e+05 0.0000000e+00
112 1.5071865e+09 5.3352487e+03 1.1360844e+06 1.5459721e+05 0.0000000e+00
113 1.5175954e+09 5.3762788e+03 1.1263108e+06 1.5575649e+05 0.0000000e+00
114 1.5354079e+09 5.4433586e+03 1.1169358e+06 1.5405727e+05 0.0000000e+00
115 1.5545126e+09 5.5136882e+03 1.1077308e+06 1.5197968e+05 0.0000000e+00
116 1.5721482e+09 5.5800547e+03 1.0980704e+06 1.4812725e+05 0.0000000e+00
117 1.5873962e+09 5.6383864e+03 1.0880219e+06 1.4316886e+05 0.0000000e+00
118 1.6000825e+09 5.6879466e+03 1.0777362e+06 1.3705340e+05 0.0000000e+00
119 1.6107739e+09 5.7310405e+03 1.0668435e+06 1.2988035e+05 0.0000000e+00
120 1.6198402e+09 5.7683589e+03 1.0554059e+06 1.2265314e+05 0.0000000e+00
121 1.6268149e+09 5.7978270e+03 1.0432121e+06 1.1564797e+05 0.0000000e+00
122 1.6331963e+09 5.8246274e+03 1.0307329e+06 1.1339341e+05 0.0000000e+00
123 1.6388260e+09 5.8489911e+03 1.0180455e+06 1.1315031e+05 0.0000000e+00
124 1.6435194e+09 5.8703633e+03 1.0053744e+06 1.1542878e+05 0.0000000e+00
125 1.6475843e+09 5.8901100e+03 9.9290734e+05 1.1783341e+05 0.0000000e+00
126 1.6523176e+09 5.9128584e+03 9.8098419e+05 1.1974585e+05 0.0000000e+00
127 1.6576327e+09 5.9375207e+03 9.6985387e+05 1.2113100e+05 0.0000000e+00
128 1.6635123e+09 5.9642416e+03 9.5934820e+05 1.2109515e+05 0.0000000e+00
129 1.6696831e+09 5.9921861e+03 9.4957777e+05 1.2091907e+05 0.0000000e+00
130 1.6760188e+09 6.0209867e+03 9.4027178e+05 1.2009326e+05 0.0000000e+00
131 1.6822191e+09 6.0495138e+03 9.3133304e+05 1.1853847e+05 0.0000000e+00
132 1.6881725e+09 6.0775156e+03 9.2257323e+05 1.1642699e+05 0.0000000e+00
133 1.6933941e+09 6.1035818e+03 9.1397902e+05 1.1413547e+05 0.0000000e+00
134 1.6978294e+09 6.1279649e+03 9.0517321e+05 1.1035590e+05 0.0000000e+00
135 1.7014298e+09 6.1493150e+03 8.9654518e+05 1.0760195e+05 0.0000000e+00
136 1.7040508e+09 6.1675229e+03 8.8768792e+05 1.0575766e+05 0.0000000e+00
137 1.7054730e+09 6.1816674e+03 8.7877842e+05 1.0611476e+05 0.0000000e+00
138 1.7057616e+09 6.1916176e+03 8.6966538e+05 1.0779845e+05 0.0000000e+00
139 1.7048971e+09 6.1972211e+03 8.6049280e+05 1.1034569e+05 0.0000000e+00
140 1.7029418e+09 6.1986759e+03 8.5130117e+05 1.1294037e+05 0.0000000e+00
141 1.6997986e+09 6.1956640e+03 8.4198976e+05 1.1509453e+05 0.0000000e+00
142 1.6955958e+09 6.1885519e+03 8.3263785e+05 1.1684584e+05 0.0000000e+00
143 1.6901851e+09 6.1768661e+03 8.2318455e+05 1.1743023e+05 0.0000000e+00
144 1.6829718e+09 6.1583356e+03 8.1357484e+05 1.1713554e+05 0.0000000e+00
145 1.6745966e+09 6.1352109e+03 8.0386313e+05 1.1613745e+05 0.0000000e+00
146 1.6642265e+09 6.1044357e+03 7.9381532e+05 1.1411276e+05 0.0000000e+00
147 1.6529205e+09 6.0695268e+03 7.8370627e+05 1.1201534e+05 0.0000000e+00
148 1.6394642e+09 6.0273392e+03 7.7312302e+05 1.0871275e+05 0.0000000e+00
149 1.6243191e+09 5.9784705e+03 7.6226130e+05 1.0504959e+05 0.0000000e+00
150 1.6073818e+09 5.9233109e+03 7.5083577e+05 1.0038497e+05 0.0000000e+00
151 1.5886213e+09 5.8614923e+03 7.3909847e+05 9.5925360e+04 0.0000000e+00
152 1.5695687e+09 5.7977830e+03 7.2742959e+05 9.3009345e+04 0.0000000e+00
153 1.5480571e+09 5.7256108e+03 7.1518286e+05 8.9598159e+04 0.0000000e+00
154 1.5256608e+09 5.6496741e+03 7.0287260e+05 8.7138284e+04 0.0000000e+00
155 1.5018987e+09 5.5687246e+03 6.9012186e+05 8.4568665e+04 0.0000000e+00
156 1.4770878e+09 5.4834549e+03 6.7714074e+05 8.2737693e+04 0.0000000e+00
157 1.4531532e+09 5.4005504e+03 6.6452135e+05 8.2588573e+04 0.0000000e+00
158 1.4271833e+09 5.3105397e+03 6.5133873e+05 8.0824466e+04 0.0000000e+00
159 1.4018080e+09 5.2217958e+03 6.3848991e+05 8.0170591e+04 0.0000000e+00
160 1.3758225e+09 5.1308506e+03 6.2539057e+05 7.8598904e+04 0.0000000e+00
161 1.3495497e+09 5.0384427e+03 6.1236625e+05 7.7153274e+04 0.0000000e+00
162 1.3249011e+09 4.9512487e+03 5.9987088e+05 7.6659384e+04 0.0000000e+00
163 1.2988894e+09 4.8594535e+03 5.8713706e+05 7.4512840e+04 0.0000000e+00
164 1.2741387e+09 4.7714777e+03 5.7495382e+05 7.3252624e+04 0.0000000e+00
165 1.2495996e+09 4.6844190e+03 5.6283648e+05 7.1501895e+04 0.0000000e+00
166 1.2253577e+09 4.5982601e+03 5.5099245e+05 6.9834796e+04 0.0000000e+00
167 1.2033173e+09 4.5196466e+03 5.3984818e+05 6.9376182e+04 0.0000000e+00
168 1.1807159e+09 4.4394702e+03 5.2864898e+05 6.7726641e+04 0.0000000e+00
169 1.1597566e+09 4.3647810e+03 5.1805723e+05 6.7108360e+04 0.0000000e+00
170 1.1401205e+09 4.2950201e+03 5.0781489e+05 6.6840182e+04 0.0000000e+00
171 1.1209672e+09 4.2271667e+03 4.9780600e+05 6.6339272e+04 0.0000000e+00
172 1.1040753e+09 4.1670666e+03 4.8855657e+05 6.7005154e+04 0.0000000e+00
173 1.0873785e+09 4.1081912e+03 4.7936879e+05 6.6219653e+04 0.0000000e+00
174 1.0720805e+09 4.0542032e+03 4.7076707e+05 6.6009373e+04 0.0000000e+00
175 1.0585379e+09 4.0066659e+03 4.6263618e+05 6.5922187e+04 0.0000000e+00
176 1.0457243e+09 3.9619972e+03 4.5480063e+05 6.5265883e+04 0.0000000e+00
177 1.0343172e+09 3.9224197e+03 4.4746264e+05 6.4857786e+04 0.0000000e+00
178 1.0239695e+09 3.8869171e+03 4.4039745e+05 6.3885631e+04 0.0000000e+00
179 1.0146887e+09 3.8553603e+03 4.3377421e+05 6.2896545e+04 0.0000000e+00
180 1.0064881e+09 3.8278050e+03 4.2745206e+05 6.1845630e+04 0.0000000e+00
181 9.9889926e+08 3.8026187e+03 4.2137939e+05 6.0564593e+04 0.0000000e+00
182 9.9199964e+08 3.7799438e+03 4.1559337e+05 5.9323425e+04 0.0000000e+00
183 9.8559317e+08 3.7590717e+03 4.1004624e+05 5.8032592e+04 0.0000000e+00
184 9.7989953e+08 3.7409137e+03 4.0472921e+05 5.6736495e+04 0.0000000e+00
185 9.7543962e+08 3.7272123e+03 3.9973260e+05 5.5867632e+04 0.0000000e+00
186 9.7129155e+08 3.7146960e+03 3.9474286e+05 5.4642114e+04 0.0000000e+00
187 9.6670400e+08 3.7002724e+03 3.8995660e+05 5.3375241e+04 0.0000000e+00
188 9.6198616e+08 3.6854935e+03 3.8511989e+05 5.1845139e+04 0.0000000e+00
189 9.5755865e+08 3.6713442e+03 3.8046281e+05 5.0863097e+04 0.0000000e+00
190 9.5278234e+08 3.6558174e+03 3.7590848e+05 5.0055481e+04 0.0000000e+00
191 9.4771717e+08 3.6390659e+03 3.7140747e+05 4.9303262e+04 0.0000000e+00
192 9.4226558e+08 3.6208228e+03 3.6696881e+05 4.8579833e+04 0.0000000e+00
193 9.3646487e+08 3.6010899e+03 3.6261114e+05 4.7985955e+04 0.0000000e+00
194 9.3025190e+08 3.5797309e+03 3.5828341e+05 4.7324473e+04 0.0000000e+00
195 9.2365428e+08 3.5568500e+03 3.5398188e+05 4.6675295e+04 0.0000000e+00
196 9.1682757e+08 3.5329338e+03 3.4978215e+05 4.6169062e+04 0.0000000e+00
197 9.0976195e+08 3.5080145e+03 3.4563321e+05 4.5749385e+04 0.0000000e+00
198 9.0245973e+08 3.4821795e+03 3.4152690e+05 4.5346104e+04 0.0000000e+00
199 8.9497787e+08 3.4555401e+03 3.3748070e+05 4.4996023e+04 0.0000000e+00
200 8.8736383e+08 3.4283200e+03 3.3350019e+05 4.4700921e+04 0.0000000e+00
201 8.7965426e+08 3.4008174e+03 3.2956825e+05 4.4353877e+04 0.0000000e+00
202 8.7201814e+08 3.3734898e+03 3.2573036e+05 4.4166162e+04 0.0000000e+00
203 8.6447326e+08 3.3464181e+03 3.2197877e+05 4.4032360e+04 0.0000000e+00
204 8.5707293e+08 3.3199345e+03 3.1832487e+05 4.3942668e+04 0.0000000e+00
205 8.4987388e+08 3.2942177e+03 3.1477574e+05 4.3896716e+04 0.0000000e+00
206 8.4295863e+08 3.2695167e+03 3.1135005e+05 4.3977082e+04 0.0000000e+00
207 8.3624837e+08 3.2455974e+03 3.0802964e+05 4.4044220e+04 0.0000000e+00
208 8.2981913e+08 3.2228713e+03 3.0481397e+05 4.4091627e+04 0.0000000e+00
209 8.2366527e+08 3.2011548e+03 3.0170593e+05 4.4115612e+04 0.0000000e+00
210 8.1768124e+08 3.1800685e+03 2.9869818e+05 4.4108607e+04 0.0000000e+00
211 8.1189467e+08 3.1597088e+03 2.9578304e+05 4.4081787e+04 0.0000000e+00
212 8.0628153e+08 3.1400388e+03 2.9297932e+05 4.4040535e+04 0.0000000e+00
213 8.0084479e+08 3.1210497e+03 2.9027882e+05 4.3920060e+04 0.0000000e+00
214 7.9553220e+08 3.1024880e+03 2.8767752e+05 4.3746473e+04 0.0000000e+00
215 7.9035511e+08 3.0844524e+03 2.8517241e+05 4.3525983e+04 0.0000000e+00
216 7.8529305e+08 3.0668413e+03 2.8274581e+05 4.3241238e+04 0.0000000e+00
217 7.8029947e+08 3.0494607e+03 2.8040671e+05 4.2937967e+04 0.0000000e+00
218 7.7537083e+08 3.0323352e+03 2.7813265e+05 4.2564184e+04 0.0000000e+00
219 7.7045194e+08 3.0152222e+03 2.7591942e+05 4.2139103e+04 0.0000000e+00
220 7.6545065e+08 2.9977580e+03 2.7375304e+05 4.1656835e+04 0.0000000e+00
221 7.6041586e+08 2.9800936e+03 2.7161291e+05 4.1146101e+04 0.0000000e+00
222 7.5527753e+08 2.9620138e+03 2.6950951e+05 4.0660023e+04 0.0000000e+00
223 7.5002563e+08 2.9434975e+03 2.6742596e+05 4.0144472e+04 0.0000000e+00
224 7.4469158e+08 2.9246808e+03 2.6535466e+05 3.9623611e+04 0.0000000e+00
225 7.3921128e+08 2.9052280e+03 2.6329975e+05 3.9120489e+04 0.0000000e+00
226 7.3347761e+08 2.8848045e+03 2.6122463e+05 3.8539061e+04 0.0000000e+00
227 7.2766158e+08 2.8640065e+03 2.5919395e+05 3.8090884e+04 0.0000000e+00
228 7.2174622e+08 2.8427899e+03 2.5717810e+05 3.7665725e+04 0.0000000e+00
229 7.1572229e+08 2.8211362e+03 2.5518714e+05 3.7272155e+04 0.0000000e+00
230 7.0960119e+08 2.7990382e+03 2.5321869e+05 3.6896037e+04 0.0000000e+00
231 7.0338689e+08 2.7766141e+03 2.5126748e+05 3.6485303e+04 0.0000000e+00
232 6.9717684e+08 2.7541124e+03 2.4934553e+05 3.6178106e+04 0.0000000e+00
233 6.9099475e+08 2.7316514e+03 2.4743482e+05 3.5899857e+04 0.0000000e+00
234 6.8481284e+08 2.7091664e+03 2.4552881e+05 3.5624731e+04 0.0000000e+00
235 6.7863986e+08 2.6866983e+03 2.4363492e+05 3.5402666e+04 0.0000000e+00
236 6.7249444e+08 2.6643099e+03 2.4175195e+05 3.5175146e+04 0.0000000e+00
237 6.6634962e+08 2.6418522e+03 2.3989479e+05 3.5071554e+04 0.0000000e+00
238 6.6031230e+08 2.6197259e+03 2.3805271e+05 3.4989683e+04 0.0000000e+00
239 6.5437448e+08 2.5979543e+03 2.3622285e+05 3.4975711e+04 0.0000000e+00
240 6.4851577e+08 2.5764494e+03 2.3440680e+05 3.4963927e+04 0.0000000e+00
241 6.4273301e+08 2.5551537e+03 2.3262161e+05 3.4993982e+04 0.0000000e+00
242 6.3704184e+08 2.5341775e+03 2.3085086e+05 3.5013995e+04 0.0000000e+00
243 6.3147162e+08 2.5136379e+03 2.2908958e+05 3.4980159e+04 0.0000000e+00
244 6.2600864e+08 2.4934547e+03 2.2733860e+05 3.4913358e+04 0.0000000e+00
245 6.2064343e+08 2.4736105e+03 2.2558390e+05 3.4825915e+04 0.0000000e+00
246 6.1542648e+08 2.4542831e+03 2.2383404e+05 3.4736013e+04 0.0000000e+00
247 6.1032796e+08 2.4353631e+03 2.2212129e+05 3.4634633e+04 0.0000000e+00
248 6.0528598e+08 2.4166580e+03 2.2041010e+05 3.4505345e+04 0.0000000e+00
249 6.0035025e+08 2.3983303e+03 2.1872870e+05 3.4361068e+04 0.0000000e+00
250 5.9546474e+08 2.3801503e+03 2.1704977e+05 3.4200085e+04 0.0000000e+00
251 5.9066132e+08 2.3622568e+03 2.1539411e+05 3.4003124e+04 0.0000000e+00
252 5.8590395e+08 2.3445148e+03 2.1376834e+05 3.3833883e+04 0.0000000e+00
253 5.8112329e+08 2.3266136e+03 2.1216931e+05 3.3632134e+04 0.0000000e+00
254 5.7636587e+08 2.3088188e+03 2.1055228e+05 3.3392648e+04 0.0000000e+00
255 5.7161464e+08 2.2909589e+03 2.0898768e+05 3.3131459e+04 0.0000000e+00
256 5.6686027e+08 2.2731725e+03 2.0737320e+05 3.2845475e+04 0.0000000e+00
257 5.6219149e+08 2.2556149e+03 2.0580863e+05 3.2571346e+04 0.0000000e+00
258 5.5756475e+08 2.2381665e+03 2.0428422e+05 3.2269771e+04 0.0000000e+00
259 5.5297860e+08 2.2209284e+03 2.0272858e+05 3.1951907e+04 0.0000000e+00
260 5.4844162e+08 2.2038257e+03 2.0117854e+05 3.1622199e+04 0.0000000e+00
261 5.4402892e+08 2.1870510e+03 1.9970540e+05 3.1300852e+04 0.0000000e+00
262 5.3960678e+08 2.1703410e+03 1.9816685e+05 3.1012695e+04 0.0000000e+00
263 5.3527225e+08 2.1539429e+03 1.9669895e+05 3.0701038e+04 0.0000000e+00
264 5.3103925e+08 2.1379093e+03 1.9523237e+05 3.0374760e+04 0.0000000e+00
265 5.2685904e+08 2.1220413e+03 1.9380334e+05 3.0050915e+04 0.0000000e+00
266 5.2273418e+08 2.1063727e+03 1.9233931e+05 2.9700650e+04 0.0000000e+00
267 5.1870499e+08 2.0910823e+03 1.9091278e+05 2.9424367e+04 0.0000000e+00
268 5.1474921e+08 2.0760952e+03 1.8942661e+05 2.9126973e+04 0.0000000e+00
269 5.1091353e+08 2.0614645e+03 1.8805609e+05 2.8826244e+04 0.0000000e+00
270 5.0713626e+08 2.0470373e+03 1.8667302e+05 2.8523638e+04 0.0000000e+00
